row.names,east.west,north.south,angle,radial.position,velocity
3,8.46278858184814,-38.1731719970703,102.5,39.0999980933372,1769
4,7.96497774124146,-35.9276924133301,102.5,36.7999993555072,1749
5,7.46716690063477,-33.6822128295898,102.5,34.5000006176771,1749
6,6.96935558319092,-31.436731338501,102.5,32.1999999145038,1758
7,6.47154426574707,-29.1912498474121,102.5,29.8999992113304,1750
8,5.97373342514038,-26.9457702636719,102.5,27.6000004735004,1745
9,5.47592210769653,-24.700288772583,102.5,25.2999997703271,1750
10,4.97811126708984,-22.4548072814941,102.5,22.9999991703602,1753
11,4.480299949646,-20.2093276977539,102.5,20.7000003293237,1734
12,3.98248887062073,-17.963846206665,102.5,18.3999996777536,1710
13,3.46303391456604,-15.6207361221313,102.5,16.0000000278342,1711
14,2.96522259712219,-13.3752555847168,102.5,13.7000002557293,1709
15,2.46741151809692,-11.1297740936279,102.5,11.3999996041592,1674
16,1.96960055828094,-8.8842945098877,102.5,9.1000008405275,1665
17,1.47178936004639,-6.63881301879883,102.5,6.80000016315577,1680
18,0.973978281021118,-4.39333200454712,102.5,4.49999997711987,1648
19,0.476167172193527,-2.14785122871399,102.5,2.20000001740068,1626
20,-0.0216439608484507,0.0976295992732048,102.5,-0.0999999984772791,1581
21,-0.519455075263977,2.34311056137085,102.5,-2.40000014125523,1602
22,-1.01726615428925,4.5885910987854,102.5,-4.69999986175692,1558
23,-1.5150773525238,6.83407211303711,102.5,-7.00000007359443,1538
24,-2.01288843154907,9.07955265045166,102.5,-9.29999979409612,1506
25,-2.51069951057434,11.3250341415405,102.5,-11.6000004456662,1521
26,-3.00851058959961,13.5705137252808,102.5,-13.8999992350995,1498
27,-3.5279655456543,15.9136238098145,102.5,-16.2999988850189,1501
28,-4.02577686309814,18.1591053009033,102.5,-18.5999995881922,1491
29,-4.52358770370483,20.4045867919922,102.5,-20.9000001881591,1481
30,-5.02139902114868,22.6500682830811,102.5,-23.2000008913325,1468
31,-5.51921033859253,24.8955478668213,102.5,-25.499999732369,1455
32,-6.01702117919922,27.1410274505615,102.5,-27.799998470199,1454
33,-6.51483249664307,29.386510848999,102.5,-30.1000010355092,1456
34,-7.01264381408691,31.6319923400879,102.5,-32.4000017386825,1459
35,-7.5104546546936,33.8774719238281,102.5,-34.7000004765126,1451
36,-8.00826549530029,36.1229515075684,102.5,-36.9999992143426,1465
37,-8.50607681274414,38.3684310913086,102.5,-39.2999980553791,1451
38,-9.50169944763184,42.8593978881836,102.5,-43.9000031859995,1486
39,-11.0167770385742,49.6934700012207,102.5,-50.9000033111971,1433
56,27.8244361877441,6.16852903366089,12.5,28.4999999930695,1631
57,21.0879936218262,4.6750955581665,12.5,21.5999998488928,1618
58,18.8425121307373,4.17728424072266,12.5,19.2999991457195,1607
59,16.5970325469971,3.67947340011597,12.5,17.0000004078894,1608
60,14.3515510559082,3.1816623210907,12.5,14.6999997563193,1601
61,12.106071472168,2.68385124206543,12.5,12.4000000358176,1603
62,9.8605899810791,2.18604016304016,12.5,10.100000315316,1612
63,7.61510896682739,1.68822908401489,12.5,7.80000012928005,1607
64,5.27199840545654,1.16877388954163,12.5,5.3999999622232,1618
65,3.02651762962341,0.670962810516357,12.5,3.10000000895441,1649
66,0.781036794185638,0.173151686787605,12.5,0.799999987818233,1595
67,-1.46444404125214,-0.324659407138824,12.5,-1.50000002686754,1580
68,-3.70992469787598,-0.822470545768738,12.5,-3.79999987665359,1574
69,-5.95540571212769,-1.32028162479401,12.5,-6.10000006268949,1574
70,-8.20088577270508,-1.81809270381927,12.5,-8.39999931765696,1559
71,-10.4463672637939,-2.31590390205383,12.5,-10.6999999950287,1578
72,-12.6918478012085,-2.8137149810791,12.5,-12.9999997155304,1591
73,-14.9373292922974,-3.31152606010437,12.5,-15.3000003671005,1579
74,-17.1828098297119,-3.80933737754822,12.5,-17.6000001392054,1588
75,-19.4282894134521,-4.30714845657349,12.5,-19.8999989286387,1581
76,-21.6737728118896,-4.80495977401733,12.5,-22.2000014939489,1569
77,-23.9192523956299,-5.30277061462402,12.5,-24.5000002317789,1572
78,-26.2623615264893,-5.82222557067871,12.5,-26.8999989506299,1584
79,-28.5078449249268,-6.32003688812256,12.5,-29.2000015159401,1565
95,23.8699417114258,-25.5973796844482,133,34.9999994859524,1718
96,22.3013477325439,-23.9152660369873,133,32.7000009221364,1711
97,20.7327499389648,-22.2331523895264,133,30.3999997567031,1710
98,19.1641540527344,-20.5510387420654,133,28.0999998920785,1715
99,17.5955562591553,-18.8689250946045,133,25.7999987266452,1713
100,16.0269622802734,-17.1868114471436,133,23.5000001628292,1717
101,14.3901653289795,-15.4315633773804,133,21.1000001532102,1715
102,12.8215675354004,-13.7494487762451,133,18.799998940708,1712
103,11.2529726028442,-12.0673360824585,133,16.4999997735566,1710
104,9.68437671661377,-10.3852224349976,133,14.199999908932,1692
105,8.11577987670898,-8.70310878753662,133,11.899999393903,1669
106,6.54718446731567,-7.02099561691284,133,9.60000020321713,1679
107,4.97858810424805,-5.3388819694519,133,7.30000001339033,1691
108,3.40999174118042,-3.65676856040955,133,4.99999999793184,1647
109,1.84139561653137,-1.9746550321579,133,2.70000005789027,1630
110,0.272799342870712,-0.292541474103928,133,0.399999994426989,1616
111,-1.2957968711853,1.3895720243454,133,-1.89999998479394,1576
112,-2.86439299583435,3.07168531417847,133,-4.1999997504672,1561
113,-4.4329891204834,4.7537989616394,133,-6.49999977769292,1558
114,-6.00158548355103,6.43591260910034,133,-8.79999996751973,1538
115,-7.63838148117065,8.19116115570068,133,-11.199999675471,1525
116,-9.20697784423828,9.87327480316162,133,-13.4999998652978,1509
117,-10.7755746841431,11.5553884506226,133,-15.8000003803268,1501
118,-12.3441705703735,13.2375020980835,133,-18.1000002449514,1494
119,-13.912766456604,14.9196147918701,133,-20.3999994121028,1489
120,-15.4813632965088,16.6017303466797,133,-22.7000013220783,1493
121,-17.0499591827393,18.283842086792,133,-24.9999997917564,1487
122,-18.6185550689697,19.9659557342529,133,-27.2999996563811,1495
123,-20.1871509552002,21.6480693817139,133,-29.5999995210057,1511
124,-21.7557468414307,23.3301830291748,133,-31.8999993856303,1505
125,-23.3243446350098,25.0122966766357,133,-34.2000005510636,1508
126,-24.8929405212402,26.6944103240967,133,-36.5000004156883,1507
127,-26.4615364074707,28.3765239715576,133,-38.8000002803129,1513
128,-28.0301322937012,30.0586357116699,133,-41.0999987499911,1493
129,-29.6669292449951,31.8138866424561,133,-43.5000008520298,1495
143,18.4201126098633,-47.9860343933105,111,51.4000004412065,1736
144,17.5958652496338,-45.8387985229492,111,49.0999992251609,1744
145,16.7716197967529,-43.6915626525879,111,46.7999986926479,1765
146,15.9473733901978,-41.5443305969238,111,44.5000013796954,1766
147,14.2630443572998,-37.1565017700195,111,39.8000007301981,1764
148,13.4387979507446,-35.0092658996582,111,37.4999998559188,1715
149,12.6145515441895,-32.8620300292969,111,35.1999993234058,1751
150,11.7903060913086,-30.7147979736328,111,32.9000020104532,1761
151,10.9660596847534,-28.5675621032715,111,30.600001136174,1763
152,10.1418123245239,-26.4203262329102,111,28.2999999201284,1758
153,9.31756687164307,-24.2730903625488,111,25.9999993876154,1743
154,8.49332046508789,-22.1258563995361,111,23.7000002939995,1738
155,7.66907405853271,-19.9786205291748,111,21.3999994197202,1732
156,6.8448281288147,-17.8313865661621,111,19.1000004969874,1734
157,6.02058124542236,-15.6841506958008,111,16.799999451825,1723
158,5.19633531570435,-13.5369157791138,111,14.4999996387605,1706
159,4.37208890914917,-11.3896808624268,111,12.1999996548129,1665
160,3.54784250259399,-9.24244594573975,111,9.89999967086532,1677
161,2.68775963783264,-7.00185298919678,111,7.49999981020574,1679
162,1.86351323127747,-4.85461807250977,111,5.19999982625813,1601
163,1.03926706314087,-2.70738339424133,111,2.90000015033502,1629
164,0.215020775794983,-0.560148298740387,111,0.60000004217102,1621
165,-0.609225511550903,1.58708679676056,111,-1.70000006599299,1574
166,-1.43347179889679,3.73432159423828,111,-3.99999989592834,1559
167,-2.25771808624268,5.88155698776245,111,-6.30000028232099,1540
168,-3.08196449279785,8.02879238128662,111,-8.60000071143444,1525
169,-3.90621042251587,10.1760263442993,111,-10.8999996341672,1517
170,-4.73045682907104,12.3232612609863,111,-13.1999996181148,1506
171,-5.55470323562622,14.4704961776733,111,-15.4999996020624,1481
172,-6.37894916534424,16.6177310943604,111,-17.7999994151269,1465
173,-7.20319604873657,18.7649669647217,111,-20.1000004602893,1468
174,-8.02744197845459,20.9122009277344,111,-22.3999993830221,1465
175,-8.88752460479736,23.1527938842773,111,-24.7999991582401,1454
176,-9.71177196502686,25.3000297546387,111,-27.1000003742857,1448
177,-10.5360174179077,27.4472637176514,111,-29.3999991261353,1441
178,-11.3602638244629,29.5944995880127,111,-31.7000000004146,1441
179,-12.1845102310181,31.7417335510254,111,-33.9999990940305,1430
180,-13.0087566375732,33.8889694213867,111,-36.2999999683098,1434
181,-13.8330020904541,36.0362014770508,111,-38.5999969394961,1445
182,-14.6572494506836,38.1834411621094,111,-40.9000017168683,1464
183,-15.4814958572388,40.3306770324707,111,-43.2000025911476,1471
184,-16.3057422637939,42.4779090881348,111,-45.4999999041002,1442
185,-17.1299877166748,44.6251449584961,111,-47.8000004366132,1436
186,-17.9542331695557,46.7723770141602,111,-50.0999974077994,1434
187,-18.7784805297852,48.9196166992188,111,-52.4000021851717,1428
211,25.8899230957031,24.1427421569824,43,35.4000016491519,1558
212,24.2078056335449,22.5741443634033,43,33.0999976938256,1563
213,22.4525585174561,20.937349319458,43,30.6999996824886,1581
214,20.8435802459717,19.4369525909424,43,28.4999993595228,1548
215,19.1614665985107,17.8683567047119,43,26.1999994948982,1572
216,17.4793529510498,16.2997608184814,43,23.8999996302736,1574
217,15.7972402572632,14.731164932251,43,21.6000004631222,1578
218,14.1151256561279,13.1625680923462,43,19.29999925062,1576
219,12.4330129623413,11.5939722061157,43,17.0000000834686,1583
220,10.7508993148804,10.0253753662109,43,14.6999995684396,1584
221,9.06878566741943,8.45677947998047,43,12.399999703815,1566
222,7.31353712081909,6.81998348236084,43,9.99999999586367,1568
223,5.70455884933472,5.31958723068237,43,7.79999999810013,1577
224,3.9493100643158,3.68279123306274,43,5.40000011578054,1587
225,2.1940610408783,2.04599499702454,43,2.99999989649156,1606
226,0.511947572231293,0.477398842573166,43,0.699999979716938,1593
227,-1.09703052043915,-1.02299749851227,43,-1.49999994824578,1584
228,-2.7791440486908,-2.59159374237061,43,-3.79999996958789,1595
229,-4.46125745773315,-4.16019010543823,43,-6.09999998504638,1617
230,-6.07023572921753,-5.6605863571167,43,-8.29999998280993,1552
231,-7.82548427581787,-7.29738235473633,43,-10.6999996907612,1597
232,-9.50759792327881,-8.8659782409668,43,-12.9999995553859,1615
233,-11.1897115707397,-10.4345750808716,43,-15.3000000704148,1626
234,-12.8718252182007,-12.0031709671021,43,-17.5999999350394,1626
235,-14.5539379119873,-13.5717668533325,43,-19.8999991021909,1586
236,-16.2360534667969,-15.1403636932373,43,-22.2000010121663,1624
237,-23.1107769012451,-21.5511493682861,43,-31.6000007606536,1600
238,-24.7197551727295,-23.0515441894531,43,-33.7999997828106,1585
242,1.97595822811127,-45.2568855285645,92.5,45.3000010890157,1738
243,1.77530908584595,-40.661262512207,92.5,40.6999998948022,1690
244,1.67498457431793,-38.363452911377,92.5,38.4000012058286,1729
245,1.57465982437134,-36.0656394958496,92.5,36.0999986953888,1719
246,1.47433531284332,-33.7678298950195,92.5,33.8000000064153,1702
247,1.37401068210602,-31.4700183868408,92.5,31.4999994067086,1754
248,1.273686170578,-29.1722087860107,92.5,29.200000717735,1741
249,1.1733615398407,-26.874397277832,92.5,26.9000001180283,1736
250,1.07303690910339,-24.5765857696533,92.5,24.5999995183216,1731
251,0.972712278366089,-22.2787742614746,92.5,22.2999989186149,1725
252,0.872387766838074,-19.9809646606445,92.5,20.0000002296414,1710
253,0.767701208591461,-17.5832481384277,92.5,17.5999994387271,1673
254,0.667376637458801,-15.2854375839233,92.5,15.299999794387,1669
255,0.567052006721497,-12.9876270294189,92.5,13.0000001474469,1641
256,0.466727435588837,-10.6898164749146,92.5,10.6999995503402,1675
257,0.366402834653854,-8.39200496673584,92.5,8.39999990470008,1681
258,0.266078263521194,-6.09419393539429,92.5,6.09999978397663,1645
259,0.165753662586212,-3.79638314247131,92.5,3.79999990014488,1594
260,0.0654290840029716,-1.49857234954834,92.5,1.5000000172881,1583
261,-0.0348955094814301,0.799238562583923,92.5,-0.79999998531449,1599
262,-0.135220095515251,3.09704947471619,92.5,-3.09999998759209,1578
263,-0.235544696450233,5.39486026763916,92.5,-5.39999987142384,1548
264,-0.335869282484055,7.69267129898071,92.5,-7.69999999279727,1543
265,-0.436193883419037,9.99048233032227,92.5,-10.0000001148207,1537
266,-0.536518454551697,12.2882928848267,92.5,-12.2999997591608,1543
267,-0.636843085289001,14.5861043930054,92.5,-14.6000003588675,1519
268,-0.741529583930969,16.9838199615479,92.5,-17.0000001944152,1500
269,-0.841854155063629,19.2816295623779,92.5,-19.2999988859887,1488
270,-0.942178785800934,21.5794410705566,92.5,-21.5999994856954,1486
271,-1.04250335693359,23.8772525787354,92.5,-23.9000000828021,1483
272,-1.1428279876709,26.1750640869141,92.5,-26.2000006825088,1481
273,-1.24315249919891,28.4728736877441,92.5,-28.4999993714824,1485
274,-1.34347712993622,30.7706851959229,92.5,-30.7999999711891,1480
275,-1.44380164146423,33.0684928894043,92.5,-33.0999967546294,1479
276,-1.54412639141083,35.3663101196289,92.5,-35.4000030761357,1505
277,-1.64445090293884,37.664119720459,92.5,-37.7000017651093,1482
278,-1.74477553367615,39.9619293212891,92.5,-40.0000004592827,1481
279,-1.84510004520416,42.2597389221191,92.5,-42.2999991482563,1489
286,24.8532180786133,49.847843170166,63.5,55.6999992601488,1531
287,23.8269634246826,47.7894973754883,63.5,53.4000022981551,1533
288,22.8007068634033,45.731143951416,63.5,51.0999976572992,1539
289,21.7298336029053,43.5833053588867,63.5,48.7000017907178,1526
290,20.7035789489746,41.5249557495117,63.5,46.4000014148204,1551
291,19.6773223876953,39.4666023254395,63.5,44.0999967739645,1549
292,18.6510677337646,37.4082565307617,63.5,41.7999998119707,1532
293,16.5539379119873,33.2020645141602,63.5,37.0999993045335,1538
294,15.572304725647,31.233211517334,63.5,34.9000025237095,1550
295,14.5460481643677,29.1748580932617,63.5,32.5999978828537,1536
296,13.4751739501953,27.0270175933838,63.5,30.199999883793,1519
297,12.4489183425903,24.9686679840088,63.5,27.8999990823682,1536
298,11.422664642334,22.9103202819824,63.5,25.60000083895,1535
299,10.396409034729,20.8519706726074,63.5,23.3000000375252,1536
300,9.37015438079834,18.7936210632324,63.5,20.9999996616278,1533
301,8.34389972686768,16.7352733612061,63.5,18.7000009926822,1528
302,7.3176441192627,14.6769227981567,63.5,16.3999993377815,1539
303,6.29138946533203,12.6185750961304,63.5,14.1000006688359,1546
304,5.26513433456421,10.5602245330811,63.5,11.8000000801748,1552
305,4.23887920379639,8.50187683105469,63.5,9.50000034498957,1557
306,3.21262407302856,6.44352722167969,63.5,7.19999975632845,1573
307,2.1863694190979,4.385178565979,63.5,4.90000023390695,1553
308,1.16011428833008,2.32682919502258,63.5,2.59999985861481,1576
309,0.133859351277351,0.268480330705643,63.5,0.300000023167007,1591
310,-0.937015354633331,-1.87936210632324,63.5,-2.09999992892913,1591
311,-1.96327042579651,-3.93771123886108,63.5,-4.40000006425683,1624
312,-2.98952531814575,-5.99605989456177,63.5,-6.69999969306018,1633
313,-4.01578044891357,-8.05440902709961,63.5,-8.99999985498334,1597
314,-5.0420355796814,-10.1127586364746,63.5,-11.3000004436445,1605
315,-6.06829023361206,-12.1711072921753,63.5,-13.599999966066,1629
316,-7.04992532730103,-14.1399631500244,63.5,-15.8000001583724,1658
317,-8.07618045806885,-16.1983127593994,63.5,-18.1000007470336,1664
318,-9.14705562591553,-18.346155166626,63.5,-20.5000008785734,1667
319,-10.1733093261719,-20.4045028686523,63.5,-22.7999991219916,1671
320,-11.1995649337769,-22.4628524780273,63.5,-25.0999999234164,1687
321,-12.2258195877075,-24.5212020874023,63.5,-27.4000002993138,1682
322,-13.2520751953125,-26.5795516967773,63.5,-29.7000011007386,1668
323,-14.2783298492432,-28.6378993988037,63.5,-31.9999997696842,1673
324,-15.3045854568481,-30.6962471008301,63.5,-34.2999984386298,1684
325,-16.3308391571045,-32.7545967102051,63.5,-36.5999988145272,1668
326,-17.3570957183838,-34.8129463195801,63.5,-38.9000000414795,1618
327,-18.3833503723145,-36.8712959289551,63.5,-41.2000004173769,1658
328,-19.4096050262451,-38.9296455383301,63.5,-43.5000007932743,1644
329,-20.4358596801758,-40.9879913330078,63.5,-45.799997755268,1647
330,-21.4621143341064,-43.0463409423828,63.5,-48.0999981311655,1642
331,-22.4883708953857,-45.1046943664551,63.5,-50.4000027720213,1616
338,29.4841403961182,6.53647661209106,12.5,30.2000010165301,1629
339,27.043399810791,5.99537754058838,12.5,27.7000004545214,1610
340,25.0908088684082,5.56249809265137,12.5,25.7000014533412,1603
341,22.6500682830811,5.02139902114868,12.5,23.2000008913325,1613
342,20.4045867919922,4.52358770370483,12.5,20.9000001881591,1603
343,18.1591053009033,4.02577686309814,12.5,18.5999995881922,1606
344,15.9136238098145,3.5279655456543,12.5,16.2999988850189,1603
345,13.7657737731934,3.05179858207703,12.5,14.1000000766066,1608
346,11.4226627349854,2.53234338760376,12.5,11.6999994440155,1613
347,9.1771821975708,2.03453230857849,12.5,9.39999972351383,1616
348,6.93170166015625,1.53672122955322,12.5,7.10000000301215,1615
349,4.5885910987854,1.01726615428925,12.5,4.69999986175692,1611
350,2.44074010848999,0.541099011898041,12.5,2.50000008357375,1580
351,0.0976295992732048,0.0216439608484507,12.5,0.0999999984772791,1580
352,-2.05022144317627,-0.454523175954819,12.5,-2.09999982941424,1586
353,-4.19807291030884,-0.930690407752991,12.5,-4.30000009248283,1591
354,-6.63881301879883,-1.47178936004639,12.5,-6.80000016315577,1592
355,-8.8842945098877,-1.96960055828094,12.5,-9.1000008405275,1562
356,-11.1297740936279,-2.46741151809692,12.5,-11.3999996041592,1572
357,-13.2776260375977,-2.94357872009277,12.5,-13.6000003263115,1589
358,-15.5231065750122,-3.44138979911804,12.5,-15.9000000468132,1588
359,-17.8662166595459,-3.96084475517273,12.5,-18.2999996967326,1585
360,-20.1116981506348,-4.45865631103516,12.5,-20.6000004515092,1586
361,-22.357177734375,-4.95646715164185,12.5,-22.8999991893392,1573
362,-24.6026592254639,-5.45427846908569,12.5,-25.1999998925126,1573
363,-26.8481407165527,-5.95208930969238,12.5,-27.5000004924795,1558
364,-29.093620300293,-6.44990015029907,12.5,-29.7999992303095,1566
375,10.8869123458862,-49.1076889038086,102.5,50.2999997007978,1740
376,9.393479347229,-42.3712463378906,102.5,43.3999996598275,1704
377,8.91731262207031,-40.2233963012695,102.5,41.2000009030184,1748
378,8.39785671234131,-37.8802833557129,102.5,38.7999982534808,1757
379,7.92168951034546,-35.7324333190918,102.5,36.5999993934653,1775
380,7.42387866973877,-33.4869537353516,102.5,34.3000006556352,1765
381,6.92606782913208,-31.2414722442627,102.5,32.0000000556684,1762
382,6.42825651168823,-28.9959926605225,102.5,29.7000012146319,1752
383,5.90880107879639,-26.6528797149658,102.5,27.2999986683007,1752
384,5.4109902381897,-24.4074001312256,102.5,24.9999999304707,1753
385,4.91317939758301,-22.1619205474854,102.5,22.7000011926407,1753
386,4.41536808013916,-19.9164390563965,102.5,20.4000004894673,1748
387,3.91755700111389,-17.6709575653076,102.5,18.0999998378972,1730
388,3.44138979911804,-15.5231065750122,102.5,15.9000000468132,1709
389,2.92193484306335,-13.1799955368042,102.5,13.5000003968938,1688
390,2.42412352561951,-10.9345149993896,102.5,11.1999996937205,1687
391,1.92631244659424,-8.6890344619751,102.5,8.89999997321881,1678
392,1.42850148677826,-6.44355344772339,102.5,6.59999981298452,1654
393,0.930690407752991,-4.19807291030884,102.5,4.30000009248283,1634
394,0.432879239320755,-1.95259201526642,102.5,2.00000000347927,1611
395,-0.0649318844079971,0.292888820171356,102.5,-0.300000017656904,1590
396,-0.562742948532104,2.53836941719055,102.5,-2.59999979312517,1562
